"time","x","y","position","velocity","acceleration","heading","curvature","rotation"
0,4.07237,6.73574,0,0,3,28.301,0,25
0.02,4.07581,6.73759,0.00390384,0.06,3,28.2993,0,24.9911
0.04,4.07924,6.73944,0.00780769,0.12,3,28.2975,0,24.9644
0.06,4.08268,6.74129,0.0117115,0.18,3,28.2958,0,24.9198
0.08,4.08612,6.74314,0.0156154,0.24,3,28.2941,0,24.8574
0.1,4.08956,6.74499,0.0195192,0.3,3,28.2923,0,24.7772
0.12,4.09299,6.74684,0.0234231,0.36,3,28.2906,0,24.6792
0.14,4.09883,6.74998,0.030052,0.42,3,28.2852,0,24.5633
0.16,4.10713,6.75445,0.0394767,0.48,3,28.276,0,24.4296
0.18,4.11543,6.75891,0.0489014,0.54,3,28.2668,0,24.2781
0.2,4.12574,6.76446,0.0606082,0.6,3,28.2503,0,24.1088
0.22,4.13656,6.77027,0.0728907,0.66,3,28.2319,0,23.9216
0.24,4.14886,6.77687,0.086844,0.72,3,28.2037,0,23.7166
0.26,4.1617,6.78375,0.101413,0.78,3,28.1721,0,23.4938
0.28,4.17626,6.79154,0.117925,0.84,3,28.1249,0,23.2532
0.3,4.19155,6.7997,0.135254,0.9,3,28.0711,0,22.9947
0.32,4.20778,6.80835,0.153646,0.96,3,28.0084,0,22.7184
0.34,4.22534,6.81768,0.173537,1.02,3,27.9311,0,22.4243
0.36,4.24395,6.82752,0.19459,1.08,3,27.836,0,22.1124
0.38,4.26359,6.83786,0.216786,1.14,3,27.7248,0,21.7826
0.4,4.2843,6.84872,0.240166,1.2,3,27.5968,0,21.4351
0.42,4.3061,6.86008,0.264748,1.26,3,27.4495,0,21.0697
0.44,4.329,6.87193,0.290536,1.32,3,27.2779,0,20.6864
0.46,4.35302,6.88426,0.317527,1.38,3,27.08,0,20.2854
0.48,4.37813,6.89705,0.345712,1.44,3,26.8572,0,19.8665
0.5,4.40436,6.91026,0.375078,1.5,3,26.6045,0,19.4298
0.52,4.43169,6.92387,0.405612,1.56,3,26.3171,0,18.9753
0.54,4.46028,6.9379,0.437463,1.62,3,25.992,0,18.5029
0.56,4.49001,6.95229,0.470486,1.68,3,25.6288,0,18.0127
0.58,4.52085,6.96695,0.504637,1.74,3,25.2214,0,17.5047
0.6,4.55296,6.98191,0.540057,1.8,3,24.7653,0,16.9789
0.62,4.58625,6.99711,0.576659,1.86,3,24.2593,0,16.4352
0.64,4.62078,7.01245,0.61444,1.92,3,23.693,0,15.8738
0.66,4.65658,7.02793,0.653449,1.98,3,23.0646,0,15.2945
0.68,4.69366,7.04348,0.693649,2.04,3,22.3699,0,14.6973
0.7,4.73201,7.05896,0.735013,2.1,3,21.598,0,14.0824
0.72,4.77178,7.07434,0.777649,2.16,3,20.741,0,13.4496
0.74,4.81285,7.08954,0.821444,2.22,3,19.7995,0,12.799
0.76,4.8553,7.10439,0.866418,2.28,3,18.7576,0,12.1306
0.78,4.89918,7.11881,0.912612,2.34,3,17.6091,0,11.4443
0.8,4.94453,7.13267,0.960027,2.4,3,16.3461,0,10.7403
0.82,4.99133,7.14579,1.00863,2.46,3,14.9597,0,10.0184
0.84,5.03961,7.15798,1.05843,2.52,3,13.439,0,9.27864
0.86,5.08937,7.16912,1.10943,2.58,3,11.782,0,8.5211
0.88,5.14062,7.179,1.16163,2.64,3,9.98291,0,7.74572
0.9,5.19334,7.18741,1.21502,2.7,3,8.03886,0,6.95253
0.92,5.24751,7.1941,1.2696,2.76,3,5.94997,0,6.1415
0.94,5.30313,7.19876,1.32542,2.82,3,3.71741,0,5.31266
0.96,5.36008,7.20125,1.38243,2.88,3,1.36044,0,4.46598
0.98,5.41827,7.20139,1.44062,2.94,3,-1.10143,0,3.60149
1,5.47759,7.19897,1.50001,3,3,-3.64359,0,2.71917
1.02,5.53798,7.1937,1.56063,3.06,3,-6.23565,0,1.81902
1.04,5.59922,7.18562,1.62241,3.12,3,-8.8388,0,0.901052
1.06,5.66124,7.17451,1.68542,3.18,3,-11.4136,0,-0.0347433
1.08,5.72386,7.16045,1.74961,3.24,3,-13.923,0,-0.988363
1.1,5.78699,7.14334,1.81502,3.3,3,-16.3276,0,-1.95981
1.12,5.85051,7.12338,1.88161,3.36,3,-18.6022,0,-2.94544
1.14,5.91435,7.10055,1.94942,3.42,0.752729,-20.7167,0,-3.9186
1.16,5.97781,7.0753,2.01771,3.39343,-3,-22.6372,0,-4.87395
1.18,6.03951,7.04847,2.085,3.33343,-3,-24.326,0,-5.81146
1.2,6.09933,7.02046,2.15105,3.27343,-3,-25.7905,0,-6.73115
1.22,6.15742,6.99159,2.21592,3.21343,-3,-27.058,0,-7.63302
1.24,6.21384,6.96209,2.27959,3.15343,-3,-28.144,0,-8.51706
1.26,6.26867,6.93216,2.34206,3.09343,-3,-29.0644,0,-9.38328
1.28,6.322,6.90202,2.40332,3.03343,-3,-29.8434,0,-10.2317
1.3,6.37396,6.87183,2.46341,2.97343,-3,-30.5008,0,-11.0622
1.32,6.42451,6.8417,2.52226,2.91343,-3,-31.0396,0,-11.875
1.34,6.47379,6.81177,2.57992,2.85343,-3,-31.4871,0,-12.6699
1.36,6.52186,6.78212,2.6364,2.79343,-3,-31.85,0,-13.447
1.38,6.56875,6.75282,2.69169,2.73343,-3,-32.1405,0,-14.2063
1.4,6.61446,6.72397,2.74574,2.67343,-3,-32.3688,0,-14.9477
1.42,6.65906,6.6956,2.7986,2.61343,-3,-32.54,0,-15.6713
1.44,6.70258,6.66776,2.85027,2.55343,-3,-32.6679,0,-16.3771
1.46,6.74505,6.64048,2.90074,2.49343,-3,-32.7543,0,-17.0651
1.48,6.78647,6.6138,2.95001,2.43343,-3,-32.8088,0,-17.7352
1.5,6.82688,6.58774,2.99809,2.37343,-3,-32.8345,0,-18.3876
1.52,6.86625,6.56233,3.04495,2.31343,-3,-32.8362,0,-19.0221
1.54,6.9046,6.53758,3.0906,2.25343,-3,-32.819,0,-19.6387
1.56,6.94197,6.5135,3.13506,2.19343,-3,-32.7855,0,-20.2376
1.58,6.97838,6.49007,3.17835,2.13343,-3,-32.7407,0,-20.8186
1.6,7.01377,6.46734,3.22041,2.07343,-3,-32.6847,0,-21.3818
1.62,7.04816,6.4453,3.26125,2.01343,-3,-32.6221,0,-21.9272
1.64,7.08162,6.42391,3.30097,1.95343,-3,-32.5542,0,-22.4547
1.66,7.11401,6.40326,3.33938,1.89343,-3,-32.4826,0,-22.9645
1.68,7.1455,6.38323,3.3767,1.83343,-3,-32.4098,0,-23.4564
1.7,7.17592,6.36396,3.41271,1.77343,-3,-32.336,0,-23.9304
1.72,7.2054,6.34532,3.44759,1.71343,-3,-32.2632,0,-24.3867
1.74,7.23391,6.32734,3.4813,1.65343,-3,-32.1919,0,-24.8251
1.76,7.26135,6.3101,3.51371,1.59343,-3,-32.1234,0,-25.2457
1.78,7.28783,6.29349,3.54496,1.53343,-3,-32.0578,0,-25.6485
1.8,7.31334,6.27753,3.57505,1.47343,-3,-31.9957,0,-26.0334
1.82,7.33786,6.26223,3.60395,1.41343,-3,-31.9377,0,-26.4006
1.84,7.36137,6.24759,3.63166,1.35343,-3,-31.8837,0,-26.7499
1.86,7.38385,6.23361,3.65812,1.29343,-3,-31.8339,0,-27.0813
1.88,7.40533,6.2203,3.68339,1.23343,-3,-31.7894,0,-27.395
1.9,7.42578,6.20763,3.70745,1.17343,-3,-31.7491,0,-27.6908
1.92,7.44517,6.19564,3.73025,1.11343,-3,-31.7131,0,-27.9688
1.94,7.46354,6.1843,3.75184,1.05343,-3,-31.6814,0,-28.229
1.96,7.4809,6.17359,3.77223,0.99343,-3,-31.6541,0,-28.4714
1.98,7.49732,6.16347,3.79152,0.93343,-3,-31.6304,0,-28.6959
2,7.51289,6.15388,3.80981,0.87343,-3,-31.6094,0,-28.9026
2.02,7.52699,6.14521,3.82636,0.81343,-3,-31.5928,0,-29.0915
2.04,7.54031,6.13702,3.842,0.75343,-3,-31.5786,0,-29.2625
2.06,7.55273,6.12939,3.85657,0.69343,-3,-31.5675,0,-29.4158
2.08,7.56375,6.12262,3.86951,0.63343,-3,-31.5592,0,-29.5512
2.1,7.57422,6.11619,3.88179,0.57343,-3,-31.5521,0,-29.6687
2.12,7.58312,6.11073,3.89223,0.51343,-3,-31.5472,0,-29.7685
2.14,7.59115,6.10579,3.90166,0.45343,-3,-31.5435,0,-29.8504
2.16,7.59918,6.10086,3.91108,0.39343,-3,-31.5398,0,-29.9145
2.18,7.60275,6.09868,3.91527,0.33343,-3,-31.5389,0,-29.9608
2.2,7.60607,6.09663,3.91917,0.27343,-3,-31.5383,0,-29.9893
2.22,7.6094,6.09459,3.92308,0.21343,-3,-31.5376,0,-29.9999
2.24,7.61273,6.09255,3.92698,0.15343,-3,-31.537,0,-30
2.26,7.61606,6.09051,3.93088,0.0934297,-3,-31.5363,0,-30
2.28,7.61938,6.08847,3.93479,0.0334297,-3,-31.5357,0,-30
