"time","x","y","position","velocity","acceleration","heading","curvature","rotation"
0,7.62382,6.08574,0,0,3,148.465,0,-30
0.02,7.62049,6.08778,0.00390384,0.06,3,148.463,0,-29.9905
0.04,7.61717,6.08982,0.00780769,0.12,3,148.461,0,-29.9618
0.06,7.61384,6.09187,0.0117115,0.18,3,148.458,0,-29.9141
0.08,7.61051,6.09391,0.0156154,0.24,3,148.456,0,-29.8472
0.1,7.60718,6.09595,0.0195192,0.3,3,148.454,0,-29.7613
0.12,7.60386,6.09799,0.0234231,0.36,3,148.451,0,-29.6562
0.14,7.59821,6.10146,0.030052,0.42,3,148.444,0,-29.5321
0.16,7.59018,6.1064,0.0394767,0.48,3,148.431,0,-29.3889
0.18,7.58215,6.11133,0.0489014,0.54,3,148.417,0,-29.2265
0.2,7.57218,6.11747,0.0606082,0.6,3,148.393,0,-29.0451
0.22,7.56172,6.1239,0.0728907,0.66,3,148.366,0,-28.8446
0.24,7.54984,6.13123,0.086844,0.72,3,148.328,0,-28.625
0.26,7.53744,6.13888,0.101413,0.78,3,148.285,0,-28.3862
0.28,7.5234,6.14757,0.117925,0.84,3,148.222,0,-28.1284
0.3,7.50868,6.1567,0.135254,0.9,3,148.149,0,-27.8515
0.32,7.49306,6.16642,0.153646,0.96,3,148.063,0,-27.5555
0.34,7.47619,6.17696,0.173537,1.02,3,147.957,0,-27.2404
0.36,7.45836,6.18815,0.19459,1.08,3,147.835,0,-26.9061
0.38,7.43958,6.19998,0.216786,1.14,3,147.694,0,-26.5528
0.4,7.41984,6.2125,0.240166,1.2,3,147.531,0,-26.1804
0.42,7.39912,6.22574,0.264748,1.26,3,147.344,0,-25.7889
0.44,7.37744,6.2397,0.290536,1.32,3,147.132,0,-25.3783
0.46,7.3548,6.25439,0.317527,1.38,3,146.895,0,-24.9486
0.48,7.33122,6.26983,0.345712,1.44,3,146.632,0,-24.4998
0.5,7.30673,6.28604,0.375078,1.5,3,146.339,0,-24.0319
0.52,7.28137,6.30304,0.405612,1.56,3,146.016,0,-23.5449
0.54,7.25502,6.32093,0.437463,1.62,3,145.66,0,-23.0388
0.56,7.22781,6.33964,0.470486,1.68,3,145.273,0,-22.5136
0.58,7.1998,6.35919,0.504637,1.74,3,144.855,0,-21.9694
0.6,7.17093,6.37971,0.540057,1.8,3,144.401,0,-21.406
0.62,7.14126,6.40114,0.576659,1.86,3,143.916,0,-20.8235
0.64,7.11082,6.42352,0.61444,1.92,3,143.398,0,-20.2219
0.66,7.07962,6.44693,0.653449,1.98,3,142.847,0,-19.6012
0.68,7.04771,6.47138,0.693649,2.04,3,142.266,0,-18.9614
0.7,7.01512,6.49685,0.735013,2.1,3,141.656,0,-18.3026
0.72,6.98183,6.52349,0.777649,2.16,3,141.018,0,-17.6246
0.74,6.94795,6.55125,0.821444,2.22,3,140.357,0,-16.9275
0.76,6.91349,6.58014,0.866418,2.28,3,139.677,0,-16.2113
0.78,6.87845,6.61024,0.912612,2.34,3,138.982,0,-15.4761
0.8,6.84286,6.64157,0.960027,2.4,3,138.277,0,-14.7243
0.82,6.8068,6.67416,1.00863,2.46,3,137.572,0,-13.9839
0.84,6.77025,6.70799,1.05843,2.52,3,136.873,0,-13.2626
0.86,6.73323,6.74307,1.10943,2.58,3,136.189,0,-12.5604
0.88,6.69577,6.77941,1.16163,2.64,3,135.532,0,-11.8773
0.9,6.65787,6.81702,1.21502,2.7,3,134.917,0,-11.2133
0.92,6.61953,6.85586,1.2696,2.76,3,134.355,0,-10.5684
0.94,6.58069,6.89595,1.32542,2.82,3,133.865,0,-9.94262
0.96,6.54133,6.9372,1.38243,2.88,3,133.464,0,-9.33592
0.98,6.50142,6.97954,1.44062,2.94,3,133.169,0,-8.74831
1,6.46086,7.02292,1.50001,3,3,133.004,0,-8.1798
1.02,6.41953,7.06726,1.56063,3.06,3,132.999,0,-7.6304
1.04,6.37734,7.1124,1.62241,3.12,3,133.174,0,-7.10009
1.06,6.33408,7.15821,1.68542,3.18,3,133.567,0,-6.58887
1.08,6.2896,7.20449,1.74961,3.24,3,134.202,0,-6.09676
1.1,6.24361,7.25101,1.81502,3.3,3,135.123,0,-5.62374
1.12,6.19594,7.29749,1.88161,3.36,2.96514,136.351,0,-5.16982
1.14,6.14636,7.34361,1.94932,3.4,0,137.904,0,-4.735
1.16,6.09516,7.38835,2.01732,3.4,0,139.804,0,-4.31928
1.18,6.04241,7.43125,2.08532,3.4,0,142.022,0,-3.92265
1.2,5.98791,7.47191,2.15332,3.4,0,144.544,0,-3.54512
1.22,5.93161,7.51003,2.22132,3.4,0,147.324,0,-3.18669
1.24,5.87352,7.54536,2.28932,3.4,0,150.305,0,-2.84736
1.26,5.81349,7.57729,2.35732,3.4,0,153.429,0,-2.52713
1.28,5.75186,7.606,2.42532,3.4,0,156.598,0,-2.22599
1.3,5.68876,7.6313,2.49332,3.4,0,159.737,0,-1.94395
1.32,5.62437,7.65314,2.56132,3.4,0,162.774,0,-1.68101
1.34,5.55895,7.67165,2.62932,3.4,0,165.651,0,-1.43717
1.36,5.49271,7.68699,2.69732,3.4,0,168.33,0,-1.21242
1.38,5.42584,7.6993,2.76532,3.4,0,170.78,0,-1.00678
1.4,5.35852,7.70886,2.83332,3.4,0,172.992,0,-0.820226
1.42,5.2909,7.71601,2.90132,3.4,0,174.972,0,-0.652775
1.44,5.22308,7.72089,2.96932,3.4,0,176.717,0,-0.504421
1.46,5.15515,7.72384,3.03732,3.4,0,178.242,0,-0.375166
1.48,5.08716,7.72515,3.10532,3.4,0,179.566,0,-0.265008
1.5,5.01917,7.72497,3.17332,3.4,0,-179.311,0,-0.173948
1.52,4.95118,7.72358,3.24132,3.4,0,-178.371,0,-0.101986
1.54,4.88322,7.72116,3.30932,3.4,0,-177.611,0,-0.0491213
1.56,4.8153,7.71798,3.37732,3.4,0,-177.015,0,-0.0153548
1.58,4.74741,7.71416,3.44532,3.4,0,-176.6,0,-0.000686226
1.6,4.67954,7.70996,3.51332,3.4,0,-176.348,0,0
1.62,4.61159,7.70557,3.58141,3.42242,3,-176.271,0,0
1.64,4.54268,7.7011,3.65047,3.48242,3,-176.321,0,0
1.66,4.47256,7.69666,3.72072,3.54242,3,-176.452,0,0
1.68,4.40125,7.69237,3.79217,3.60242,3,-176.666,0,0
1.7,4.32872,7.68832,3.86481,3.66242,3,-176.97,0,0
1.72,4.25497,7.68469,3.93865,3.72242,3,-177.382,0,0
1.74,4.17998,7.68158,4.0137,3.78242,3,-177.901,0,0
1.76,4.10377,7.67919,4.08995,3.84224,1.79138,-178.536,0,0
1.78,4.02702,7.67772,4.16672,3.81386,-3,-179.256,0,0
1.8,3.95134,7.67721,4.2424,3.75386,-3,-179.974,0,0
1.82,3.87687,7.67759,4.31687,3.69386,-3,179.406,0,0
1.84,3.8036,7.67865,4.39014,3.63386,-3,178.973,0,0
1.86,3.73155,7.6801,4.46221,3.57386,-3,178.761,0,0
1.88,3.66069,7.68166,4.53309,3.51386,-3,178.742,0,0
1.9,3.59102,7.68313,4.60277,3.45386,-3,178.856,0,0
1.92,3.52255,7.6844,4.67125,3.39386,-3,179.042,0,0
1.94,3.4553,7.68539,4.73852,3.33386,-3,179.252,0,0
1.96,3.38921,7.68615,4.8046,3.27386,-3,179.458,0,0
1.98,3.32435,7.68665,4.86947,3.21386,-3,179.641,0,0
2,3.26067,7.68696,4.93315,3.15386,-3,179.793,0,0
2.02,3.19819,7.68712,4.99563,3.09386,-3,179.906,0,0
2.04,3.1369,7.68718,5.05692,3.03386,-3,179.978,0,0
2.06,3.07685,7.68719,5.11698,2.97386,-1.62271,-179.971,0,0
2.08,3.01759,7.68702,5.17623,2.96,0,-179.587,0,0.0165515
2.1,2.95839,7.68611,5.23543,2.96,0,-178.58,0,0.0662059
2.12,2.89924,7.68388,5.29463,2.96,0,-176.98,0,0.148963
2.14,2.8402,7.67963,5.35383,2.96,0,-174.723,0,0.264824
2.16,2.7814,7.67283,5.41303,2.96,0,-171.793,0,0.413787
2.18,2.72313,7.66246,5.47223,2.96,0,-168.063,0,0.595853
2.2,2.66578,7.64803,5.53139,2.95012,-2.65936,-163.556,0,0.811022
2.22,2.6105,7.6291,5.58985,2.89304,-3,-158.381,0,1.05929
2.24,2.55842,7.60543,5.64709,2.83304,-3,-152.775,0,1.34067
2.26,2.50993,7.57736,5.70315,2.77304,-3,-147.092,0,1.65515
2.28,2.46535,7.54544,5.75801,2.71304,-3,-141.707,0,2.00273
2.3,2.42468,7.51046,5.81168,2.65304,-3,-136.935,0,2.38341
2.32,2.38765,7.47331,5.86415,2.59304,-3,-132.965,0,2.7972
2.34,2.35378,7.43485,5.91541,2.53304,-3,-129.853,0,3.24409
2.36,2.32251,7.39576,5.96547,2.47304,-3,-127.562,0,3.72408
2.38,2.2933,7.3566,6.01432,2.41304,-3,-126.021,0,4.23718
2.4,2.26563,7.31781,6.06197,2.35304,-3,-125.125,0,4.78338
2.42,2.23905,7.27972,6.10842,2.29304,-3,-124.766,0,5.36268
2.44,2.21323,7.24253,6.15369,2.23304,-3,-124.858,0,5.97508
2.46,2.18792,7.20643,6.19779,2.17304,-3,-125.321,0,6.62059
2.48,2.16294,7.17165,6.24061,2.11304,-3,-126.115,0,7.2992
2.5,2.13807,7.13824,6.28226,2.05304,-3,-127.171,0,8.01091
2.52,2.11327,7.10622,6.32276,1.99304,-3,-128.42,0,8.75573
2.54,2.0885,7.07582,6.36197,1.93304,-3,-129.823,0,9.53365
2.56,2.06378,7.04681,6.40009,1.87304,-3,-131.318,0,10.3447
2.58,2.03909,7.01953,6.43688,1.81304,-3,-132.882,0,11.1888
2.6,2.01443,6.99373,6.47257,1.75304,-3,-134.474,0,12.066
2.62,1.98995,6.9695,6.50702,1.69304,-3,-136.055,0,12.9674
2.64,1.96572,6.94677,6.54025,1.63304,-3,-137.599,0,13.8434
2.66,1.94179,6.9254,6.57233,1.57304,-3,-139.092,0,14.6863
2.68,1.91817,6.90545,6.60325,1.51304,-3,-140.512,0,15.4961
2.7,1.89507,6.88693,6.63286,1.45304,-3,-141.838,0,16.2728
2.72,1.87253,6.86962,6.66128,1.39304,-3,-143.073,0,17.0164
2.74,1.85062,6.85345,6.68852,1.33304,-3,-144.213,0,17.7268
2.76,1.82935,6.83841,6.71456,1.27304,-3,-145.25,0,18.4042
2.78,1.8088,6.82445,6.73941,1.21304,-3,-146.182,0,19.0485
2.8,1.78904,6.81143,6.76308,1.15304,-3,-147.021,0,19.6596
2.82,1.7701,6.79928,6.78557,1.09304,-3,-147.773,0,20.2377
2.84,1.75199,6.78794,6.80694,1.03304,-3,-148.445,0,20.7826
2.86,1.73496,6.77766,6.82684,0.973044,-3,-149.001,0,21.2945
2.88,1.71884,6.7681,6.84558,0.913044,-3,-149.483,0,21.7733
2.9,1.70355,6.75917,6.86329,0.853044,-3,-149.907,0,22.2189
2.92,1.68922,6.75091,6.87983,0.793044,-3,-150.27,0,22.6315
2.94,1.6762,6.74352,6.8948,0.733044,-3,-150.563,0,23.0109
2.96,1.66362,6.73642,6.90925,0.673044,-3,-150.833,0,23.3572
2.98,1.65287,6.73047,6.92153,0.613044,-3,-151.009,0,23.6705
3,1.64212,6.72453,6.93381,0.553044,-3,-151.186,0,23.9506
3.02,1.63381,6.71998,6.94328,0.493044,-3,-151.285,0,24.1976
3.04,1.62554,6.71547,6.95271,0.433044,-3,-151.383,0,24.4116
3.06,1.61867,6.71172,6.96054,0.373044,-3,-151.46,0,24.5924
3.08,1.61524,6.70985,6.96444,0.313044,-3,-151.487,0,24.7401
3.1,1.6118,6.70799,6.96835,0.253044,-3,-151.513,0,24.8547
3.12,1.60837,6.70613,6.97225,0.193044,-3,-151.539,0,24.9363
3.14,1.60494,6.70427,6.97615,0.133044,-3,-151.565,0,24.9847
3.16,1.60151,6.70241,6.98006,0.0730439,-3,-151.591,0,25
3.18,1.59808,6.70055,6.98396,0.0130439,-3,-151.617,0,25
