"time","x","y","position","velocity","acceleration","heading","curvature","rotation"
0,2.44991,5.59818,0,0,4.3,0,0,0
0.02,2.45458,5.59818,0.00467376,0.086,4.3,0.00369283,0,0
0.04,2.45926,5.59818,0.00934751,0.172,4.3,0.00738566,0,0
0.06,2.46393,5.59818,0.0140213,0.258,4.3,0.0110785,0,0
0.08,2.46861,5.59818,0.018695,0.344,4.3,0.0147713,0,0
0.1,2.47328,5.59818,0.0233688,0.43,4.3,0.0184641,0,0
0.12,2.48169,5.59819,0.0317797,0.516,4.3,0.028196,0,0
0.14,2.49297,5.5982,0.0430631,0.602,4.3,0.0425698,0,0
0.16,2.50533,5.59821,0.0554219,0.688,4.3,0.0631009,0,0
0.18,2.52004,5.59823,0.0701268,0.774,4.3,0.0970643,0,0
0.2,2.53635,5.59826,0.0864388,0.86,4.3,0.144044,0,0
0.22,2.5541,5.59831,0.10419,0.946,4.3,0.202517,0,0
0.24,2.5739,5.59839,0.123988,1.032,4.3,0.276516,0,0
0.26,2.59548,5.59852,0.145567,1.118,4.3,0.38083,0,0
0.28,2.61869,5.5987,0.168784,1.204,4.3,0.503704,0,0
0.3,2.64361,5.59895,0.193698,1.29,4.3,0.652917,0,0
0.32,2.67023,5.5993,0.220324,1.376,4.3,0.832677,0,0
0.34,2.69855,5.59974,0.248651,1.462,4.3,1.04032,0,0
0.36,2.72855,5.60037,0.278657,1.548,4.3,1.288,0,0
0.38,2.76043,5.60115,0.310549,1.634,4.3,1.57079,0,0
0.4,2.79399,5.60218,0.344117,1.72,4.3,1.89618,0,0
0.42,2.82913,5.60343,0.379288,1.806,4.3,2.2566,0,0
0.44,2.86614,5.60504,0.416332,1.892,4.3,2.66691,0,0
0.46,2.90473,5.60699,0.454969,1.978,4.3,3.11683,0,0
0.48,2.94513,5.60936,0.495441,2.064,4.3,3.61306,0,0
0.5,2.98714,5.61221,0.53754,2.15,4.3,4.1525,0,0
0.52,3.03085,5.61561,0.581388,2.236,4.3,4.73604,0,0
0.54,3.07628,5.61962,0.626996,2.322,4.3,5.36295,0,0
0.56,3.12335,5.62431,0.674299,2.408,4.3,6.03051,0,0
0.58,3.17206,5.62977,0.723316,2.494,4.3,6.73697,0,0
0.6,3.22241,5.63605,0.774052,2.58,4.3,7.47907,0,0
0.62,3.27437,5.64323,0.826509,2.666,4.3,8.25329,0,0
0.64,3.32793,5.65137,0.880681,2.752,4.3,9.05569,0,0
0.66,3.38304,5.66056,0.936559,2.838,4.3,9.88164,0,0
0.68,3.43974,5.67086,0.994179,2.924,4.3,10.7267,0,0
0.7,3.49797,5.68235,1.05354,3.01,4.3,11.585,0,0
0.72,3.55767,5.69507,1.11458,3.096,4.3,12.4502,0,0
0.74,3.61888,5.70908,1.17737,3.182,4.3,13.3177,0,0
0.76,3.68151,5.72441,1.24185,3.268,4.3,14.1803,0,0
0.78,3.74561,5.74112,1.30809,3.354,4.3,15.0328,0,0
0.8,3.81108,5.75921,1.37602,3.44,4.3,15.8685,0,0
0.82,3.87795,5.7787,1.44567,3.526,4.3,16.6829,0,0
0.84,3.94618,5.7997,1.51706,3.612,4.3,17.464,0,0
0.86,4.01576,5.8221,1.59016,3.698,4.3,18.2112,0,0
0.88,4.08669,5.84592,1.66498,3.784,4.3,18.9174,0,0
0.9,4.15895,5.87116,1.74152,3.87,4.3,19.5733,0,0
0.92,4.23254,5.89777,1.81978,3.956,4.3,20.1738,0,0
0.94,4.30748,5.9257,1.89975,4.042,4.3,20.7138,0,0
0.96,4.38376,5.95492,1.98144,4.128,4.3,21.1797,0,0
0.98,4.46145,5.98534,2.06488,4.214,4.3,21.5674,0,0
1,4.54053,6.01685,2.15,4.29418,0.983186,21.8654,0,0
1.02,4.62027,6.04902,2.23598,4.3,0,22.0618,0,0
1.04,4.69994,6.08139,2.32198,4.3,0,22.1422,0,0
1.06,4.77961,6.11379,2.40798,4.3,0,22.1007,0,0
1.08,4.85933,6.14604,2.49398,4.3,0,21.9255,0,0
1.1,4.9392,6.17794,2.57998,4.3,0,21.5965,0,0
1.12,5.01928,6.20929,2.66598,4.3,0,21.1059,0,0
1.14,5.09969,6.23978,2.75198,4.3,0,20.4142,0,0
1.16,5.18052,6.26915,2.83798,4.3,0,19.4988,0,0
1.18,5.26186,6.29707,2.92398,4.3,0,18.3217,0,0
1.2,5.34383,6.32308,3.00998,4.3,0,16.8249,0,0
1.22,5.42651,6.34671,3.09598,4.3,0,14.9466,0,0
1.24,5.51003,6.3672,3.18198,4.3,0,12.5818,0,0
1.26,5.59439,6.38384,3.26798,4.3,0,9.63269,0,0
1.28,5.67957,6.39561,3.35398,4.3,0,5.96094,0,0
1.3,5.76535,6.40124,3.43998,4.3,0,1.40736,0,0
1.32,5.85129,6.39934,3.52598,4.3,0,-4.15854,0,0
1.34,5.93653,6.38834,3.61198,4.3,0,-10.7919,0,0
1.36,6.01968,6.36669,3.69798,4.3,0,-18.3725,0,0
1.38,6.09916,6.33406,3.78398,4.3,0,-26.4735,0,0
1.4,6.17317,6.29041,3.86998,4.3,0,-34.5128,0,0
1.42,6.24057,6.23712,3.95598,4.3,0,-41.9098,0,0
1.44,6.30115,6.17614,4.04198,4.3,0,-48.3417,0,0
1.46,6.35505,6.10919,4.12798,4.3,0,-53.7004,0,0
1.48,6.40323,6.03798,4.21398,4.3,0,-58.1005,0,0
1.5,6.44629,5.96355,4.29998,4.3,0,-61.6443,0,0
1.52,6.48515,5.88684,4.38598,4.3,0,-64.4953,0,0
1.54,6.5205,5.80872,4.47174,4.25624,-4.3,-66.7776,0,0
1.56,6.55243,5.73076,4.55599,4.17024,-4.3,-68.5516,0,0
1.58,6.58164,5.65356,4.63853,4.08424,-4.3,-69.9241,0,0
1.6,6.60866,5.57738,4.71936,3.99824,-4.3,-70.9637,0,0
1.62,6.63396,5.50242,4.79848,3.91224,-4.3,-71.7193,0,0
1.64,6.6579,5.42883,4.87586,3.82624,-4.3,-72.2218,0,0
1.66,6.6808,5.35672,4.95153,3.74024,-4.3,-72.4865,0,0
1.68,6.70299,5.28619,5.02546,3.65424,-4.3,-72.5796,0,0
1.7,6.72443,5.21723,5.09768,3.56824,-4.3,-72.934,0,0
1.72,6.74477,5.14973,5.16818,3.48224,-4.3,-73.5613,0,0
1.74,6.76384,5.08363,5.23697,3.39624,-4.3,-74.2849,0,0
1.76,6.78161,5.01896,5.30404,3.31024,-4.3,-74.9659,0,0
1.78,6.79824,4.95578,5.36937,3.22424,-4.3,-75.4903,0,0
1.8,6.81401,4.89412,5.43301,3.13824,-4.3,-75.7851,0,0
1.82,6.82918,4.83413,5.4949,3.05224,-4.3,-75.7699,0,0
1.84,6.84413,4.77583,5.55508,2.96624,-4.3,-75.3937,0,0
1.86,6.85926,4.71932,5.61358,2.88024,-4.3,-74.5805,0,0
1.88,6.87495,4.66483,5.67029,2.79424,-4.3,-73.257,0,0
1.9,6.89163,4.61241,5.7253,2.70824,-4.3,-71.3596,0,0
1.92,6.90972,4.56228,5.7786,2.62224,-4.3,-68.8038,0,0
1.94,6.92963,4.51471,5.83018,2.53624,-4.3,-65.5046,0,0
1.96,6.95186,4.47009,5.88004,2.45024,-4.3,-61.3663,0,0
1.98,6.97673,4.42891,5.92819,2.36424,-4.3,-56.373,0,0
2,7.00409,4.39144,5.97462,2.27824,-4.3,-50.6867,0,0
2.02,7.03402,4.35819,6.01937,2.19224,-4.3,-44.4637,0,0
2.04,7.06636,4.33002,6.06229,2.10624,-4.3,-38.0507,0,0
2.06,7.10012,4.30638,6.10355,2.02024,-4.3,-31.8803,0,0
2.08,7.13481,4.2874,6.14313,1.93424,-4.3,-26.2785,0,0
2.1,7.16938,4.27224,6.1809,1.84824,-4.3,-21.3862,0,0
2.12,7.20342,4.26017,6.21702,1.76224,-4.3,-17.1824,0,0
2.14,7.23662,4.25126,6.25143,1.67624,-4.3,-13.7809,0,0
2.16,7.26844,4.24427,6.28402,1.59024,-4.3,-10.9345,0,0
2.18,7.29894,4.23908,6.31495,1.50424,-4.3,-8.62237,0,0
2.2,7.32793,4.2352,6.34421,1.41824,-4.3,-6.73832,0,0
2.22,7.3553,4.2322,6.37174,1.33224,-4.3,-5.16388,0,0
2.24,7.381,4.23014,6.39752,1.24624,-4.3,-3.93311,0,0
2.26,7.40497,4.22871,6.42154,1.16024,-4.3,-2.96183,0,0
2.28,7.42719,4.22772,6.44378,1.07424,-4.3,-2.19655,0,0
2.3,7.44768,4.22705,6.46429,0.988237,-4.3,-1.59638,0,0
2.32,7.46659,4.22659,6.4832,0.902237,-4.3,-1.12385,0,0
2.34,7.48403,4.22629,6.50064,0.816237,-4.3,-0.754855,0,0
2.36,7.49894,4.22614,6.51556,0.730237,-4.3,-0.517393,0,0
2.38,7.51298,4.22602,6.5296,0.644237,-4.3,-0.31395,0,0
2.4,7.52427,4.22598,6.54088,0.558237,-4.3,-0.205189,0,0
2.42,7.53555,4.22594,6.55216,0.472237,-4.3,-0.0964274,0,0
2.44,7.5406,4.22594,6.55721,0.386237,-4.3,-0.075535,0,0
2.46,7.54527,4.22593,6.56189,0.300237,-4.3,-0.0599069,0,0
2.48,7.54994,4.22593,6.56656,0.214237,-4.3,-0.0442787,0,0
2.5,7.55462,4.22593,6.57123,0.128237,-4.3,-0.0286505,0,0
2.52,7.55929,4.22593,6.57591,0.0422366,-4.3,-0.0130223,0,0
