"time","x","y","position","velocity","acceleration","heading","curvature","rotation"
0,1.48946,5.53868,0,0,2,90,0,0
0.02,1.48946,5.54187,0.00318748,0.04,2,90.0121,0,0
0.04,1.48946,5.54505,0.00637495,0.08,2,90.0241,0,0
0.06,1.48945,5.54824,0.00956243,0.12,2,90.0362,0,0
0.08,1.48945,5.55143,0.0127499,0.16,2,90.0483,0,0
0.1,1.48945,5.55462,0.0159374,0.2,2,90.0604,0,0
0.12,1.48945,5.5578,0.0191249,0.24,2,90.0724,0,0
0.14,1.48944,5.56099,0.0223123,0.28,2,90.0845,0,0
0.16,1.48944,5.56432,0.0256409,0.32,2,90.0983,0,0
0.18,1.48941,5.57202,0.0333362,0.36,2,90.1665,0,0
0.2,1.48938,5.57971,0.0410314,0.4,2,90.2347,0,0
0.22,1.48936,5.58741,0.0487267,0.44,2,90.3029,0,0
0.24,1.48929,5.59681,0.0581266,0.48,2,90.4214,0,0
0.26,1.4892,5.60683,0.0681553,0.52,2,90.5585,0,0
0.28,1.4891,5.61723,0.0785533,0.56,2,90.7116,0,0
0.3,1.48892,5.62913,0.0904491,0.6,2,90.9294,0,0
0.32,1.48873,5.64112,0.102446,0.64,2,91.153,0,0
0.34,1.48841,5.65462,0.115948,0.68,2,91.4619,0,0
0.36,1.48805,5.66838,0.12971,0.72,2,91.7907,0,0
0.38,1.48751,5.6833,0.144645,0.76,2,92.2096,0,0
0.4,1.48683,5.69885,0.160208,0.8,2,92.6805,0,0
0.42,1.48602,5.71507,0.176449,0.84,2,93.2076,0,0
0.44,1.48491,5.73238,0.193798,0.88,2,93.8344,0,0
0.46,1.4836,5.7503,0.211767,0.92,2,94.5199,0,0
0.48,1.48205,5.76892,0.230445,0.96,2,95.2729,0,0
0.5,1.48009,5.78846,0.250087,1,2,96.1156,0,0
0.52,1.47773,5.80877,0.270537,1.04,2,97.0212,0,0
0.54,1.4749,5.82978,0.291738,1.08,2,97.9559,0,0
0.56,1.47163,5.85151,0.313716,1.12,2,98.907,0,0
0.58,1.46795,5.87399,0.336488,1.16,2,99.831,0,0
0.6,1.46375,5.89718,0.360064,1.2,2,100.644,0,0
0.62,1.45914,5.92113,0.384448,1.24,2,101.351,0,0
0.64,1.45406,5.94581,0.409643,1.28,2,101.706,0,0
0.66,1.44876,5.97126,0.435647,1.32,2,101.881,0,0
0.68,1.44331,5.99751,0.462456,1.36,2,101.538,0,0
0.7,1.43792,6.02459,0.490068,1.4,2,100.949,0,0
0.72,1.43277,6.05253,0.518475,1.44,2,100.001,0,0
0.74,1.42798,6.08133,0.547673,1.48,2,98.8421,0,0
0.76,1.42361,6.11099,0.577654,1.52,2,97.5367,0,0
0.78,1.41988,6.14152,0.608412,1.56,2,96.1719,0,0
0.8,1.41689,6.173,0.64004,1.6,2,94.8403,0,0
0.82,1.41453,6.20534,0.67246,1.64,2,93.6051,0,0
0.84,1.41275,6.23847,0.705639,1.68,2,92.4986,0,0
0.86,1.41152,6.27243,0.739623,1.72,2,91.5555,0,0
0.88,1.41084,6.30725,0.774452,1.76,2,90.8317,0,0
0.9,1.4105,6.34281,0.810019,1.8,2,90.3168,0,0
0.92,1.4104,6.37924,0.846442,1.84,2,90.0502,0,0
0.94,1.41041,6.41643,0.883631,1.88,2,89.8796,0,0
0.96,1.41064,6.45443,0.921636,1.92,2,89.3605,0,0
0.98,1.41136,6.49321,0.960426,1.96,2,88.3682,0,0
1,1.41316,6.53278,1.00004,2,2,86.7539,0,0
1.02,1.4162,6.57302,1.04041,2.04,2,84.5768,0,0
1.04,1.42104,6.61395,1.08164,2.08,2,81.6597,0,0
1.06,1.42839,6.65528,1.12363,2.12,2,77.8148,0,0
1.08,1.43919,6.69666,1.16641,2.16,1.97818,72.775,0,0
1.1,1.45425,6.73735,1.20985,2.16998,-2,66.3921,0,0
1.12,1.47384,6.77557,1.25285,2.12998,-2,58.8402,0,0
1.14,1.49818,6.80999,1.29508,2.08998,-2,50.4621,0,0
1.16,1.52673,6.83984,1.33645,2.04998,-2,41.9312,0,0
1.18,1.55885,6.86457,1.37706,2.00998,-2,33.9662,0,0
1.2,1.59303,6.88487,1.41686,1.96998,-2,26.9168,0,0
1.22,1.62874,6.90045,1.45584,1.92998,-2,21.1497,0,0
1.24,1.66488,6.91275,1.49406,1.88998,-2,16.3782,0,0
1.26,1.70109,6.922,1.53144,1.84998,-2,12.5826,0,0
1.28,1.73702,6.92894,1.56805,1.80998,-2,9.53507,0,0
1.3,1.77242,6.93428,1.60385,1.76998,-2,7.01118,0,0
1.32,1.80721,6.93779,1.63883,1.72998,-2,5.08907,0,0
1.34,1.84135,6.94029,1.67306,1.68998,-2,3.50252,0,0
1.36,1.87468,6.94208,1.70644,1.64998,-2,2.16637,0,0
1.38,1.90724,6.94299,1.73902,1.60998,-2,1.13459,0,0
1.4,1.93905,6.94339,1.77083,1.56998,-2,0.29619,0,0
1.42,1.97009,6.94339,1.80187,1.52998,-2,-0.378243,0,0
1.44,2.00026,6.94304,1.83204,1.48998,-2,-0.899617,0,0
1.46,2.02963,6.94246,1.86141,1.44998,-2,-1.29987,0,0
1.48,2.0582,6.94173,1.89,1.40998,-2,-1.60213,0,0
1.5,2.08598,6.94089,1.91779,1.36998,-2,-1.82122,0,0
1.52,2.11297,6.94,1.94479,1.32998,-2,-1.96913,0,0
1.54,2.13915,6.93907,1.97098,1.28998,-2,-2.05639,0,0
1.56,2.16452,6.93815,1.99638,1.24998,-2,-2.09232,0,0
1.58,2.1891,6.93726,2.02097,1.20998,-2,-2.08528,0,0
1.6,2.21287,6.9364,2.04476,1.16998,-2,-2.04277,0,0
1.62,2.23585,6.93559,2.06775,1.12998,-2,-1.97156,0,0
1.64,2.25804,6.93484,2.08996,1.08998,-2,-1.87766,0,0
1.66,2.27947,6.93416,2.1114,1.04998,-2,-1.76637,0,0
1.68,2.30011,6.93354,2.13205,1.00998,-2,-1.64162,0,0
1.7,2.3198,6.933,2.15174,0.969977,-2,-1.50692,0,0
1.72,2.33874,6.93253,2.17068,0.929977,-2,-1.3687,0,0
1.74,2.35698,6.93211,2.18894,0.889977,-2,-1.22926,0,0
1.76,2.37443,6.93175,2.20638,0.849977,-2,-1.09067,0,0
1.78,2.39087,6.93146,2.22283,0.809977,-2,-0.958136,0,0
1.8,2.40676,6.93121,2.23872,0.769977,-2,-0.830291,0,0
1.82,2.42169,6.93102,2.25365,0.729977,-2,-0.711855,0,0
1.84,2.43581,6.93086,2.26777,0.689977,-2,-0.60346,0,0
1.86,2.44931,6.93072,2.28127,0.649977,-2,-0.502666,0,0
1.88,2.46171,6.93063,2.29367,0.609977,-2,-0.416694,0,0
1.9,2.4736,6.93055,2.30557,0.569977,-2,-0.337447,0,0
1.92,2.48447,6.93049,2.31643,0.529977,-2,-0.271548,0,0
1.94,2.49449,6.93045,2.32646,0.489977,-2,-0.21645,0,0
1.96,2.50448,6.93041,2.33644,0.449977,-2,-0.161848,0,0
1.98,2.51217,6.9304,2.34413,0.409977,-2,-0.131536,0,0
2,2.51987,6.93038,2.35183,0.369977,-2,-0.101223,0,0
2.02,2.52756,6.93037,2.35953,0.329977,-2,-0.0709109,0,0
2.04,2.53201,6.93036,2.36398,0.289977,-2,-0.0578579,0,0
2.06,2.5352,6.93036,2.36717,0.249977,-2,-0.0515415,0,0
2.08,2.53839,6.93036,2.37035,0.209977,-2,-0.0452251,0,0
2.1,2.54158,6.93036,2.37354,0.169977,-2,-0.0389087,0,0
2.12,2.54476,6.93036,2.37673,0.129977,-2,-0.0325923,0,0
2.14,2.54795,6.93035,2.37992,0.0899769,-2,-0.0262759,0,0
2.16,2.55114,6.93035,2.3831,0.0499769,-2,-0.0199595,0,0
2.18,2.55433,6.93035,2.38629,0.00997694,-2,-0.013643,0,0
