"time","x","y","position","velocity","acceleration","heading","curvature","rotation"
0,7.66515,0.839192,0,0,4,155,0,0
0.02,7.66106,0.841097,0.00450777,0.08,4,155.002,0,-0.00848794
0.04,7.65698,0.843001,0.00901554,0.16,4,155.004,0,-0.0339517
0.06,7.65289,0.844906,0.0135233,0.24,4,155.005,0,-0.0763914
0.08,7.64881,0.846811,0.0180311,0.32,4,155.007,0,-0.135807
0.1,7.64472,0.848715,0.0225389,0.4,4,155.009,0,-0.212198
0.12,7.63853,0.851603,0.0293753,0.48,4,155.013,0,-0.305566
0.14,7.62866,0.856199,0.040258,0.56,4,155.021,0,-0.415909
0.16,7.6187,0.860839,0.0512441,0.64,4,155.03,0,-0.543228
0.18,7.60584,0.866824,0.0654267,0.72,4,155.046,0,-0.687523
0.2,7.59241,0.873075,0.0802441,0.8,4,155.066,0,-0.848794
0.22,7.57715,0.88016,0.0970674,0.88,4,155.098,0,-1.02704
0.24,7.56038,0.887936,0.11555,0.96,4,155.137,0,-1.22226
0.26,7.54232,0.8963,0.135457,1.04,4,155.184,0,-1.43446
0.28,7.52281,0.905312,0.156944,1.12,4,155.242,0,-1.66364
0.3,7.50181,0.914979,0.180069,1.2,4,155.317,0,-1.90979
0.32,7.47929,0.925311,0.204845,1.28,4,155.404,0,-2.17291
0.34,7.45526,0.936288,0.231263,1.36,4,155.509,0,-2.45301
0.36,7.42973,0.947875,0.2593,1.44,4,155.635,0,-2.75009
0.38,7.40272,0.960068,0.28893,1.52,4,155.779,0,-3.06414
0.4,7.37426,0.972822,0.320122,1.6,4,155.947,0,-3.39517
0.42,7.34436,0.986114,0.352845,1.68,4,156.137,0,-3.74318
0.44,7.31284,0.999986,0.387276,1.76,4,156.354,0,-4.10816
0.46,7.27982,1.01435,0.423286,1.84,4,156.601,0,-4.49012
0.48,7.24533,1.0292,0.460842,1.92,4,156.875,0,-4.88905
0.5,7.2092,1.04449,0.50007,2,4,157.185,0,-5.30496
0.52,7.17156,1.06021,0.540861,2.08,4,157.525,0,-5.73784
0.54,7.13237,1.07627,0.583211,2.16,4,157.903,0,-6.18771
0.56,7.09151,1.09269,0.627255,2.24,4,158.318,0,-6.65454
0.58,7.04906,1.10937,0.67286,2.32,4,158.772,0,-7.13835
0.6,7.005,1.12627,0.720051,2.4,4,159.266,0,-7.63914
0.62,6.95929,1.14333,0.768841,2.48,4,159.802,0,-8.15691
0.64,6.91191,1.16049,0.819237,2.56,4,160.38,0,-8.69165
0.66,6.86283,1.1777,0.871239,2.64,3.85087,161,0,-9.24336
0.68,6.81215,1.1948,0.924731,2.7,0,161.662,0,-9.81205
0.7,6.7608,1.2115,0.978731,2.7,0,162.35,0,-10.3977
0.72,6.70924,1.22755,1.03273,2.7,0,163.055,0,-11.0004
0.74,6.65749,1.24298,1.08673,2.7,0,163.772,0,-11.62
0.76,6.60555,1.25774,1.14073,2.7,0,164.498,0,-12.2545
0.78,6.55343,1.27186,1.19473,2.7,0,165.227,0,-12.8911
0.8,6.50112,1.28527,1.24873,2.7,0,165.952,0,-13.5276
0.82,6.44866,1.29806,1.30273,2.7,0,166.669,0,-14.1642
0.84,6.39603,1.31017,1.35673,2.7,0,167.368,0,-14.8008
0.86,6.34327,1.32168,1.41073,2.7,0,168.045,0,-15.4374
0.88,6.29038,1.33256,1.46473,2.7,0,168.691,0,-16.074
0.9,6.23737,1.34287,1.51873,2.7,0,169.296,0,-16.7106
0.92,6.18427,1.35265,1.57273,2.7,0,169.855,0,-17.3472
0.94,6.13107,1.36192,1.62673,2.7,0,170.356,0,-17.9838
0.96,6.0778,1.37075,1.68073,2.7,0,170.79,0,-18.6204
0.98,6.02447,1.37922,1.73473,2.7,0,171.152,0,-19.257
1,5.97109,1.38739,1.78873,2.7,0,171.431,0,-19.8936
1.02,5.91768,1.39534,1.84273,2.7,0,171.618,0,-20.5302
1.04,5.86425,1.40316,1.89673,2.7,0,171.71,0,-21.1668
1.06,5.81081,1.41094,1.95073,2.7,0,171.699,0,-21.8034
1.08,5.75738,1.41879,2.00473,2.7,0,171.58,0,-22.44
1.1,5.70398,1.4268,2.05873,2.7,0,171.343,0,-23.0766
1.12,5.65062,1.43509,2.11273,2.7,0,170.99,0,-23.7132
1.14,5.59732,1.44375,2.16673,2.7,0,170.521,0,-24.3498
1.16,5.5441,1.4529,2.22073,2.7,0,169.939,0,-24.9864
1.18,5.49099,1.46265,2.27473,2.7,0,169.242,0,-25.623
1.2,5.43801,1.4731,2.32873,2.7,0,168.435,0,-26.2596
1.22,5.38519,1.48434,2.38273,2.7,0,167.527,0,-26.8961
1.24,5.33257,1.49644,2.43673,2.7,0,166.528,0,-27.5327
1.26,5.28017,1.5095,2.49073,2.7,0,165.447,0,-28.1693
1.28,5.22804,1.52359,2.54473,2.7,0,164.293,0,-28.8059
1.3,5.17623,1.53878,2.59873,2.7,0,163.081,0,-29.4425
1.32,5.12474,1.55507,2.65273,2.7,0,161.826,0,-30.0791
1.34,5.07363,1.57247,2.70673,2.7,0,160.543,0,-30.7157
1.36,5.02291,1.59102,2.76073,2.7,0,159.242,0,-31.3523
1.38,4.97265,1.61075,2.81473,2.7,0,157.939,0,-31.9889
1.4,4.92283,1.63158,2.86873,2.7,0,156.644,0,-32.6255
1.42,4.87348,1.65351,2.92273,2.7,0,155.369,0,-33.2613
1.44,4.82467,1.67659,2.97673,2.7,0,154.124,0,-33.8841
1.46,4.77634,1.70067,3.03073,2.7,0,152.915,0,-34.4899
1.48,4.72851,1.72575,3.08473,2.7,0,151.75,0,-35.0788
1.5,4.68121,1.75179,3.13873,2.7,0,150.634,0,-35.6507
1.52,4.63438,1.77869,3.19273,2.7,0,149.569,0,-36.2056
1.54,4.58808,1.80646,3.24673,2.7,-2.8899,148.56,0,-36.7436
1.56,4.54275,1.83466,3.30011,2.63129,-4,147.616,0,-37.2645
1.58,4.49921,1.86276,3.35194,2.55129,-4,146.757,0,-37.7685
1.6,4.45739,1.89057,3.40216,2.47129,-4,145.972,0,-38.2555
1.62,4.41728,1.91804,3.45077,2.39129,-4,145.264,0,-38.7256
1.64,4.37881,1.94504,3.49777,2.31129,-4,144.621,0,-39.1786
1.66,4.34192,1.97153,3.54319,2.23129,-4,144.043,0,-39.6147
1.68,4.30655,1.99742,3.58703,2.15129,-4,143.52,0,-40.0338
1.7,4.27269,2.02269,3.62927,2.07129,-4,143.053,0,-40.436
1.72,4.24035,2.04719,3.66985,1.99129,-4,142.635,0,-40.8211
1.74,4.20935,2.07102,3.70895,1.91129,-4,142.262,0,-41.1893
1.76,4.17989,2.09396,3.74628,1.83129,-4,141.932,0,-41.5405
1.78,4.1517,2.11617,3.78217,1.75129,-4,141.64,0,-41.8747
1.8,4.12495,2.13743,3.81634,1.67129,-4,141.383,0,-42.192
1.82,4.09953,2.15783,3.84893,1.59129,-4,141.16,0,-42.4923
1.84,4.07538,2.17733,3.87998,1.51129,-4,140.962,0,-42.7756
1.86,4.05251,2.19594,3.90946,1.43129,-4,140.792,0,-43.0419
1.88,4.03094,2.21358,3.93732,1.35129,-4,140.647,0,-43.2912
1.9,4.0107,2.23021,3.96352,1.27129,-4,140.522,0,-43.5236
1.92,3.99169,2.2459,3.98817,1.19129,-4,140.418,0,-43.739
1.94,3.974,2.26055,4.01114,1.11129,-4,140.332,0,-43.9374
1.96,3.95762,2.27415,4.03242,1.03129,-4,140.259,0,-44.1189
1.98,3.94249,2.28674,4.05211,0.951289,-4,140.2,0,-44.2834
2,3.92849,2.29842,4.07035,0.871289,-4,140.153,0,-44.4309
2.02,3.91558,2.3092,4.08717,0.791289,-4,140.114,0,-44.5614
2.04,3.90443,2.31852,4.1017,0.711289,-4,140.086,0,-44.6749
2.06,3.89375,2.32746,4.11563,0.631289,-4,140.059,0,-44.7715
2.08,3.88541,2.33445,4.12651,0.551289,-4,140.046,0,-44.8511
2.1,3.87706,2.34144,4.13739,0.471289,-4,140.033,0,-44.9137
2.12,3.87236,2.34539,4.14353,0.391289,-4,140.027,0,-44.9593
2.14,3.8689,2.34828,4.14804,0.311289,-4,140.023,0,-44.988
2.16,3.86545,2.35118,4.15255,0.231289,-4,140.02,0,-44.9997
2.18,3.86199,2.35407,4.15706,0.151289,-4,140.017,0,-45
2.2,3.85854,2.35697,4.16156,0.0712894,-4,140.013,0,-45
