"time","x","y","position","velocity","acceleration","heading","curvature","rotation"
0,7.93933,1.90138,0,0,2,180,0,0
0.02,7.93614,1.90138,0.00318748,0.04,2,-179.997,0,0
0.04,7.93296,1.90138,0.00637495,0.08,2,-179.993,0,0
0.06,7.92977,1.90138,0.00956243,0.12,2,-179.99,0,0
0.08,7.92658,1.90138,0.0127499,0.16,2,-179.987,0,0
0.1,7.92339,1.90138,0.0159374,0.2,2,-179.984,0,0
0.12,7.92021,1.90138,0.0191249,0.24,2,-179.98,0,0
0.14,7.91702,1.90138,0.0223123,0.28,2,-179.977,0,0
0.16,7.91369,1.90138,0.0256409,0.32,2,-179.973,0,0
0.18,7.90599,1.90137,0.0333362,0.36,2,-179.95,0,0
0.2,7.8983,1.90136,0.0410314,0.4,2,-179.927,0,0
0.22,7.8906,1.90135,0.0487267,0.44,2,-179.904,0,0
0.24,7.8812,1.90133,0.0581266,0.48,2,-179.862,0,0
0.26,7.87117,1.9013,0.0681553,0.52,2,-179.813,0,0
0.28,7.86078,1.90127,0.0785533,0.56,2,-179.757,0,0
0.3,7.84888,1.9012,0.0904491,0.6,2,-179.677,0,0
0.32,7.83688,1.90113,0.102446,0.64,2,-179.594,0,0
0.34,7.82338,1.90099,0.115948,0.68,2,-179.467,0,0
0.36,7.80962,1.90084,0.12971,0.72,2,-179.337,0,0
0.38,7.79469,1.90067,0.144645,0.76,2,-179.196,0,0
0.4,7.77913,1.90043,0.160208,0.8,2,-179.023,0,0
0.42,7.76289,1.90009,0.176449,0.84,2,-178.814,0,0
0.44,7.74554,1.89973,0.193798,0.88,2,-178.59,0,0
0.46,7.72758,1.89924,0.211767,0.92,2,-178.33,0,0
0.48,7.70891,1.89862,0.230445,0.96,2,-178.028,0,0
0.5,7.68928,1.89794,0.250087,1,2,-177.706,0,0
0.52,7.66886,1.89701,0.270537,1.04,2,-177.322,0,0
0.54,7.64768,1.89595,0.291738,1.08,2,-176.907,0,0
0.56,7.62574,1.89469,0.313716,1.12,2,-176.448,0,0
0.58,7.60302,1.89315,0.336488,1.16,2,-175.931,0,0
0.6,7.57951,1.8914,0.360063,1.2,2,-175.374,0,0
0.62,7.55522,1.88927,0.384448,1.24,2,-174.748,0,0
0.64,7.53014,1.88685,0.409643,1.28,2,-174.072,0,0
0.66,7.5043,1.88398,0.435647,1.32,2,-173.325,0,0
0.68,7.47769,1.88067,0.462456,1.36,2,-172.514,0,0
0.7,7.45035,1.87687,0.490068,1.4,2,-171.634,0,0
0.72,7.42228,1.87251,0.518475,1.44,2,-170.681,0,0
0.74,7.39351,1.86752,0.547673,1.48,2,-169.654,0,0
0.76,7.36406,1.86191,0.577654,1.52,2,-168.555,0,0
0.78,7.33399,1.85546,0.608412,1.56,2,-167.371,0,0
0.8,7.3032,1.84822,0.64004,1.6,2,-166.113,0,0
0.82,7.27183,1.84004,0.67246,1.64,2,-164.775,0,0
0.84,7.2399,1.83104,0.705639,1.68,2,-163.374,0,0
0.86,7.20749,1.82081,0.739623,1.72,2,-161.898,0,0
0.88,7.17453,1.80956,0.774452,1.76,2,-160.366,0,0
0.9,7.1412,1.79715,0.810019,1.8,2,-158.788,0,0
0.92,7.10742,1.78356,0.846442,1.84,2,-157.173,0,0
0.94,7.07338,1.76859,0.883631,1.88,2,-155.542,0,0
0.96,7.039,1.75238,0.921636,1.92,2,-153.908,0,0
0.98,7.0044,1.73485,0.960426,1.96,2,-152.295,0,0
1,6.96962,1.7159,1.00004,2,2,-150.732,0,0
1.02,6.93461,1.69581,1.04041,2.04,2,-149.219,0,0
1.04,6.89952,1.67417,1.08164,2.08,2,-147.825,0,0
1.06,6.8642,1.65145,1.12363,2.12,2,-146.524,0,0
1.08,6.82877,1.62748,1.16641,2.16,2,-145.374,0,0
1.1,6.79311,1.60235,1.21003,2.2,2,-144.391,0,0
1.12,6.7572,1.57625,1.25443,2.24,2,-143.58,0,0
1.14,6.72099,1.54921,1.29962,2.28,2,-142.979,0,0
1.16,6.68438,1.52139,1.3456,2.32,2,-142.591,0,0
1.18,6.64724,1.49289,1.39242,2.36,2,-142.435,0,0
1.2,6.60948,1.4639,1.44002,2.4,2,-142.556,0,0
1.22,6.57097,1.43458,1.48843,2.44,2,-142.92,0,0
1.24,6.53157,1.40511,1.53763,2.48,2,-143.556,0,0
1.26,6.49111,1.37573,1.58763,2.52,2,-144.473,0,0
1.28,6.44947,1.34663,1.63842,2.56,2,-145.667,0,0
1.3,6.40652,1.31804,1.69002,2.6,2,-147.125,0,0
1.32,6.36212,1.29023,1.74242,2.64,2,-148.845,0,0
1.34,6.31612,1.26352,1.79562,2.68,2,-150.809,0,0
1.36,6.2685,1.23808,1.84961,2.72,2,-152.972,0,0
1.38,6.21924,1.21412,1.9044,2.76,2,-155.297,0,0
1.4,6.16847,1.19199,1.95978,2.76067,-2,-157.729,0,0
1.42,6.11729,1.1724,2.01459,2.72067,-2,-160.162,0,0
1.44,6.06612,1.15513,2.0686,2.68067,-2,-162.534,0,0
1.46,6.01505,1.14021,2.12181,2.64067,-2,-164.801,0,0
1.48,5.96423,1.12744,2.17422,2.60067,-2,-166.936,0,0
1.5,5.91376,1.11664,2.22584,2.56067,-2,-168.918,0,0
1.52,5.86375,1.10767,2.27665,2.52067,-2,-170.732,0,0
1.54,5.81428,1.10034,2.32666,2.48067,-2,-172.372,0,0
1.56,5.76543,1.09445,2.37587,2.44067,-2,-173.84,0,0
1.58,5.71724,1.08981,2.42429,2.40067,-2,-175.137,0,0
1.6,5.66976,1.08626,2.4719,2.36067,-2,-176.267,0,0
1.62,5.62301,1.08362,2.51872,2.32067,-2,-177.237,0,0
1.64,5.57702,1.08174,2.56475,2.28067,-2,-178.053,0,0
1.66,5.53185,1.08047,2.60994,2.24067,-2,-178.72,0,0
1.68,5.48745,1.07968,2.65435,2.20067,-2,-179.247,0,0
1.7,5.44383,1.07924,2.69797,2.16067,-2,-179.642,0,0
1.72,5.40101,1.07907,2.7408,2.12067,-2,-179.887,0,0
1.74,5.35902,1.07904,2.78278,2.08067,-0.874726,-179.989,0,0
1.76,5.31755,1.07905,2.82425,2.07,0,179.957,0,-0.0131563
1.78,5.27615,1.07911,2.86565,2.07,0,179.838,0,-0.0526252
1.8,5.23475,1.0793,2.90705,2.07,0,179.622,0,-0.118407
1.82,5.19336,1.07968,2.94845,2.07,0,179.313,0,-0.210501
1.84,5.15196,1.08032,2.98985,2.07,0,178.912,0,-0.328908
1.86,5.11057,1.08127,3.03125,2.07,0,178.416,0,-0.473627
1.88,5.06919,1.08263,3.07265,2.07,0,177.823,0,-0.644659
1.9,5.02783,1.08445,3.11405,2.07,0,177.128,0,-0.842003
1.92,4.9865,1.08679,3.15545,2.07,0,176.33,0,-1.06566
1.94,4.94521,1.08978,3.19685,2.07,0,175.416,0,-1.31563
1.96,4.90397,1.09343,3.23825,2.07,0,174.391,0,-1.59191
1.98,4.86281,1.09788,3.27965,2.07,0,173.239,0,-1.89451
2,4.82176,1.10321,3.32105,2.07,0,171.957,0,-2.22341
2.02,4.78084,1.10949,3.36245,2.07,0,170.543,0,-2.57864
2.04,4.7401,1.11683,3.40385,2.07,0,168.99,0,-2.96017
2.06,4.69958,1.12531,3.44525,2.07,0,167.296,0,-3.36801
2.08,4.65936,1.13509,3.48665,2.07,0,165.458,0,-3.80217
2.1,4.61945,1.14611,3.52805,2.07,0,163.496,0,-4.26264
2.12,4.57999,1.15861,3.56945,2.07,0,161.408,0,-4.74942
2.14,4.54102,1.17257,3.61085,2.07,0,159.219,0,-5.26252
2.16,4.50258,1.18793,3.65225,2.07,0,156.958,0,-5.80193
2.18,4.46486,1.20499,3.69365,2.07,0,154.65,0,-6.36765
2.2,4.42779,1.22341,3.73505,2.07,0,152.338,0,-6.95968
2.22,4.39152,1.24335,3.77645,2.07,0,150.061,0,-7.57803
2.24,4.35608,1.26475,3.81785,2.07,0,147.863,0,-8.22269
2.26,4.32141,1.28736,3.85925,2.07,0,145.769,0,-8.89366
2.28,4.28759,1.31124,3.90065,2.07,0,143.827,0,-9.59094
2.3,4.25458,1.33622,3.94205,2.07,0,142.057,0,-10.3145
2.32,4.22228,1.36212,3.98345,2.07,0,140.464,0,-11.0644
2.34,4.19069,1.38887,4.02485,2.07,0,139.071,0,-11.8407
2.36,4.15971,1.41633,4.06625,2.07,0,137.876,0,-12.6432
2.38,4.12924,1.44436,4.10765,2.07,0,136.865,0,-13.4721
2.4,4.09927,1.4729,4.14904,2.06848,-0.933635,136.056,0,-14.3272
2.42,4.06977,1.50164,4.19022,2.04158,-2,135.404,0,-15.2087
2.44,4.04114,1.53013,4.23062,2.00158,-2,134.933,0,-16.1165
2.46,4.01322,1.55829,4.27027,1.96158,-2,134.6,0,-17.0506
2.48,3.98602,1.58598,4.30908,1.92158,-2,134.391,0,-18.011
2.5,3.95944,1.6132,4.34713,1.88158,-2,134.29,0,-18.9977
2.52,3.93346,1.63984,4.38434,1.84158,-2,134.273,0,-20.0107
2.54,3.90799,1.66594,4.42081,1.80158,-2,134.333,0,-21.0501
2.56,3.8831,1.69137,4.4564,1.76158,-2,134.45,0,-22.1157
2.58,3.85865,1.71622,4.49125,1.72158,-2,134.617,0,-23.1968
2.6,3.83471,1.7404,4.52528,1.68158,-2,134.818,0,-24.2548
2.62,3.81126,1.7639,4.55848,1.64158,-2,135.051,0,-25.2865
2.64,3.78825,1.78678,4.59093,1.60158,-2,135.302,0,-26.2919
2.66,3.76568,1.80901,4.62261,1.56158,-2,135.569,0,-27.2709
2.68,3.74364,1.8305,4.65339,1.52158,-2,135.845,0,-28.2237
2.7,3.72207,1.85136,4.6834,1.48158,-2,136.124,0,-29.1501
2.72,3.70094,1.87155,4.71262,1.44158,-2,136.404,0,-30.0503
2.74,3.68031,1.89112,4.74106,1.40158,-2,136.681,0,-30.9241
2.76,3.66015,1.91003,4.7687,1.36158,-2,136.951,0,-31.7716
2.78,3.64051,1.92832,4.79554,1.32158,-2,137.215,0,-32.5928
2.8,3.62135,1.94595,4.82157,1.28158,-2,137.467,0,-33.3877
2.82,3.60273,1.96296,4.8468,1.24158,-2,137.709,0,-34.1563
2.84,3.58463,1.97936,4.87122,1.20158,-2,137.938,0,-34.8985
2.86,3.56707,1.99514,4.89483,1.16158,-2,138.154,0,-35.6145
2.88,3.55006,2.01033,4.91763,1.12158,-2,138.357,0,-36.3041
2.9,3.53358,2.02493,4.93965,1.08158,-2,138.546,0,-36.9674
2.92,3.51764,2.03896,4.96089,1.04158,-2,138.72,0,-37.6044
2.94,3.50223,2.05246,4.98138,1.00158,-2,138.883,0,-38.2151
2.96,3.48741,2.06536,5.00102,0.961581,-2,139.03,0,-38.7995
2.98,3.47326,2.07761,5.01974,0.921581,-2,139.161,0,-39.3576
3,3.45962,2.08938,5.03775,0.881581,-2,139.283,0,-39.8893
3.02,3.44643,2.10073,5.05515,0.841581,-2,139.396,0,-40.3948
3.04,3.43408,2.11127,5.07139,0.801581,-2,139.487,0,-40.8739
3.06,3.4222,2.12141,5.087,0.761581,-2,139.572,0,-41.3268
3.08,3.41084,2.13109,5.10194,0.721581,-2,139.651,0,-41.7533
3.1,3.40029,2.14003,5.11576,0.681581,-2,139.712,0,-42.1535
3.12,3.38999,2.14875,5.12926,0.641581,-2,139.768,0,-42.5273
3.14,3.38078,2.15654,5.14132,0.601581,-2,139.812,0,-42.8749
3.16,3.37169,2.16421,5.15322,0.561581,-2,139.854,0,-43.1962
3.18,3.36368,2.17096,5.16369,0.521581,-2,139.885,0,-43.4911
3.2,3.35601,2.17742,5.17372,0.481581,-2,139.911,0,-43.7597
3.22,3.34875,2.18353,5.18321,0.441581,-2,139.934,0,-44.0021
3.24,3.34286,2.18848,5.1909,0.401581,-2,139.947,0,-44.2181
3.26,3.33697,2.19344,5.1986,0.361581,-2,139.959,0,-44.4078
3.28,3.33108,2.19839,5.20629,0.321581,-2,139.972,0,-44.5712
3.3,3.32839,2.20064,5.2098,0.281581,-2,139.975,0,-44.7082
3.32,3.32595,2.20269,5.21299,0.241581,-2,139.978,0,-44.819
3.34,3.32351,2.20474,5.21618,0.201581,-2,139.981,0,-44.9034
3.36,3.32107,2.20679,5.21936,0.161581,-2,139.984,0,-44.9616
3.38,3.31862,2.20884,5.22255,0.121581,-2,139.987,0,-44.9934
3.4,3.31618,2.21089,5.22574,0.0815813,-2,139.99,0,-45
3.42,3.31374,2.21294,5.22893,0.0415813,-2,139.993,0,-45
3.44,3.3113,2.21499,5.23211,0.00158127,-2,139.996,0,-45
