"time","x","y","position","velocity","acceleration","heading","curvature","rotation"
0,3.19518,2.7934,0,0,2,0,0,-45
0.02,3.19837,2.7934,0.00318748,0.04,2,-0.0103591,0,-44.9911
0.04,3.20155,2.79339,0.00637495,0.08,2,-0.0207182,0,-44.9644
0.06,3.20474,2.79339,0.00956243,0.12,2,-0.0310772,0,-44.9198
0.08,3.20793,2.79339,0.0127499,0.16,2,-0.0414363,0,-44.8574
0.1,3.21112,2.79339,0.0159374,0.2,2,-0.0517954,0,-44.7772
0.12,3.2143,2.79338,0.0191249,0.24,2,-0.0621545,0,-44.6792
0.14,3.21749,2.79338,0.0223123,0.28,2,-0.0725135,0,-44.5633
0.16,3.22082,2.79338,0.0256409,0.32,2,-0.0835621,0,-44.4296
0.18,3.22852,2.79336,0.0333362,0.36,2,-0.115939,0,-44.2781
0.2,3.23621,2.79335,0.0410314,0.4,2,-0.148316,0,-44.1088
0.22,3.24391,2.79334,0.0487267,0.44,2,-0.180693,0,-43.9216
0.24,3.25331,2.79329,0.0581266,0.48,2,-0.258575,0,-43.7166
0.26,3.26333,2.79323,0.0681553,0.52,2,-0.353237,0,-43.4938
0.28,3.27373,2.79316,0.0785533,0.56,2,-0.455738,0,-43.2532
0.3,3.28563,2.79305,0.0904491,0.6,2,-0.590019,0,-42.9947
0.32,3.29762,2.79293,0.102446,0.64,2,-0.728825,0,-42.7184
0.34,3.31112,2.79271,0.115948,0.68,2,-0.935303,0,-42.4243
0.36,3.32488,2.79247,0.12971,0.72,2,-1.15325,0,-42.1124
0.38,3.33982,2.79212,0.144645,0.76,2,-1.42294,0,-41.7826
0.4,3.35537,2.7917,0.160208,0.8,2,-1.72649,0,-41.4351
0.42,3.37161,2.7912,0.176449,0.84,2,-2.0666,0,-41.0697
0.44,3.38894,2.79046,0.193798,0.88,2,-2.49015,0,-40.6864
0.46,3.40689,2.78963,0.211767,0.92,2,-2.94931,0,-40.2854
0.48,3.42554,2.78866,0.230445,0.96,2,-3.45289,0,-39.8665
0.5,3.44513,2.78729,0.250087,1,2,-4.06889,0,-39.4298
0.52,3.46553,2.78575,0.270537,1.04,2,-4.73154,0,-38.9753
0.54,3.48664,2.78385,0.291738,1.08,2,-5.48209,0,-38.5029
0.56,3.5085,2.78156,0.313716,1.12,2,-6.32227,0,-38.0127
0.58,3.53111,2.77891,0.336488,1.16,2,-7.24169,0,-37.5047
0.6,3.55448,2.77575,0.360064,1.2,2,-8.26503,0,-36.9789
0.62,3.57857,2.77199,0.384448,1.24,2,-9.39961,0,-36.4352
0.64,3.6034,2.76775,0.409643,1.28,2,-10.624,0,-35.8738
0.66,3.62887,2.76249,0.435647,1.32,2,-12.0068,0,-35.2945
0.68,3.65502,2.75663,0.462457,1.36,2,-13.4853,0,-34.6973
0.7,3.68177,2.74979,0.490068,1.4,2,-15.0972,0,-34.0824
0.72,3.70908,2.74198,0.518475,1.44,2,-16.8335,0,-33.4496
0.74,3.73689,2.7331,0.547673,1.48,2,-18.6905,0,-32.799
0.76,3.7651,2.72296,0.577654,1.52,2,-20.6709,0,-32.1306
0.78,3.79376,2.71181,0.608412,1.56,1.18381,-22.7483,0,-31.4443
0.8,3.82241,2.6989,0.639836,1.58,0,-24.9302,0,-30.7403
0.82,3.85082,2.68508,0.671436,1.58,0,-27.1395,0,-30.0184
0.84,3.87864,2.6701,0.703036,1.58,0,-29.3501,0,-29.2786
0.86,3.90591,2.65414,0.734636,1.58,0,-31.5427,0,-28.5211
0.88,3.93253,2.63713,0.766236,1.58,0,-33.6937,0,-27.7457
0.9,3.95843,2.61903,0.797836,1.58,0,-35.7739,0,-26.9525
0.92,3.98378,2.60016,0.829436,1.58,0,-37.7861,0,-26.1415
0.94,4.0084,2.58036,0.861036,1.58,0,-39.6941,0,-25.3127
0.96,4.03243,2.55985,0.892636,1.58,0,-41.5049,0,-24.466
0.98,4.05573,2.5385,0.924236,1.58,0,-43.1813,0,-23.6015
1,4.07849,2.51658,0.955836,1.58,0,-44.7471,0,-22.7192
1.02,4.10065,2.49406,0.987436,1.58,0,-46.1809,0,-21.8302
1.04,4.12226,2.471,1.01904,1.58,0,-47.4774,0,-20.957
1.06,4.14339,2.44752,1.05064,1.58,0,-48.6508,0,-20.1015
1.08,4.16401,2.42357,1.08224,1.58,0,-49.6719,0,-19.2639
1.1,4.18431,2.39935,1.11384,1.58,0,-50.5912,0,-18.4441
1.12,4.20417,2.37477,1.14544,1.58,0,-51.3489,0,-17.6422
1.14,4.22377,2.34999,1.17704,1.58,0,-51.9954,0,-16.858
1.16,4.2431,2.32499,1.20864,1.58,0,-52.5043,0,-16.0917
1.18,4.26226,2.29986,1.24024,1.58,0,-52.9131,0,-15.3432
1.2,4.28124,2.2746,1.27184,1.58,0,-53.1671,0,-14.6126
1.22,4.30015,2.24928,1.30344,1.58,0,-53.3107,0,-13.8997
1.24,4.31902,2.22394,1.33504,1.58,0,-53.3294,0,-13.2047
1.26,4.33791,2.1986,1.36664,1.58,0,-53.2352,0,-12.5275
1.28,4.35687,2.17332,1.39824,1.58,0,-53.0115,0,-11.8681
1.3,4.37596,2.14814,1.42984,1.58,0,-52.6592,0,-11.2266
1.32,4.39522,2.12309,1.46144,1.58,0,-52.1893,0,-10.6029
1.34,4.41473,2.09823,1.49304,1.58,0,-51.5864,0,-9.99699
1.36,4.43447,2.07355,1.52464,1.58,0,-50.8755,0,-9.40892
1.38,4.45464,2.04923,1.55624,1.58,0,-50.0001,0,-8.83868
1.4,4.47514,2.02518,1.58784,1.58,0,-49.017,0,-8.28626
1.42,4.49611,2.00155,1.61944,1.58,0,-47.8911,0,-7.75166
1.44,4.51745,1.97824,1.65104,1.58,0,-46.663,0,-7.23489
1.46,4.53951,1.95562,1.68264,1.58,0,-45.2522,0,-6.73595
1.48,4.56201,1.93343,1.71424,1.58,0,-43.7422,0,-6.25483
1.5,4.58516,1.91193,1.74584,1.58,0,-42.0962,0,-5.79153
1.52,4.60891,1.89108,1.77744,1.58,0,-40.3363,0,-5.34606
1.54,4.6333,1.871,1.80904,1.58,0,-38.4638,0,-4.91841
1.56,4.65845,1.85187,1.84064,1.58,0,-36.4774,0,-4.50859
1.58,4.68412,1.83345,1.87224,1.58,0,-34.423,0,-4.1166
1.6,4.71054,1.81612,1.90384,1.58,0,-32.2909,0,-3.74242
1.62,4.73755,1.79973,1.93544,1.58,0,-30.1132,0,-3.38608
1.64,4.7652,1.78445,1.96704,1.58,0,-27.9056,0,-3.04755
1.66,4.7934,1.77019,1.99864,1.58,0,-25.6926,0,-2.72685
1.68,4.8221,1.75697,2.03024,1.58,0,-23.4928,0,-2.42398
1.7,4.85134,1.74502,2.06184,1.58,0,-21.3369,0,-2.13893
1.72,4.88097,1.73403,2.09344,1.58,0,-19.2311,0,-1.87171
1.74,4.911,1.72423,2.12504,1.58,0,-17.2054,0,-1.62231
1.76,4.94128,1.7152,2.15664,1.58,0,-15.2431,0,-1.39073
1.78,4.97194,1.70757,2.18824,1.58,0,-13.4175,0,-1.17698
1.8,5.00278,1.70069,2.21984,1.58,0,-11.6789,0,-0.981056
1.82,5.03382,1.69477,2.25144,1.58,0,-10.062,0,-0.802955
1.84,5.06498,1.68951,2.28304,1.58,0,-8.53293,0,-0.642679
1.86,5.0963,1.68534,2.31464,1.58,0,-7.17366,0,-0.500227
1.88,5.12769,1.68173,2.34624,1.58,0,-5.90939,0,-0.3756
1.9,5.15916,1.67883,2.37784,1.58,0,-4.77601,0,-0.268798
1.92,5.19066,1.67642,2.40944,1.58,0,-3.74328,0,-0.17982
1.94,5.22221,1.67465,2.44104,1.58,0,-2.85938,0,-0.108667
1.96,5.25378,1.67326,2.47264,1.58,0,-2.0733,0,-0.0553386
1.98,5.28537,1.67233,2.50424,1.58,0,-1.42834,0,-0.0198349
2,5.31696,1.6717,2.53584,1.58,0,-0.898933,0,-0.00215586
2.02,5.34856,1.6713,2.56744,1.58,0,-0.483633,0,0
2.04,5.38016,1.67113,2.59904,1.58,0,-0.213048,0,0
2.06,5.41176,1.67106,2.63064,1.58,1.15346,-0.0609996,0,0
2.08,5.44357,1.67106,2.66245,1.60639,2,0.0364521,0,0
2.1,5.47608,1.67109,2.69496,1.64639,2,0.144232,0,0
2.12,5.50944,1.67128,2.72832,1.68639,2,0.435716,0,0
2.14,5.54355,1.67164,2.76243,1.72639,2,0.838625,0,0
2.16,5.57846,1.67232,2.79735,1.76639,2,1.39965,0,0
2.18,5.61419,1.6734,2.8331,1.80639,2,2.11321,0,0
2.2,5.65064,1.675,2.86958,1.84639,2,2.98592,0,0
2.22,5.68794,1.67732,2.90695,1.88639,2,4.04867,0,0
2.24,5.72591,1.68032,2.94504,1.92639,2,5.26269,0,0
2.26,5.76464,1.68448,2.984,1.96639,1.80394,6.70603,0,0
2.28,5.80398,1.68949,3.02365,2,0,8.30036,0,0
2.3,5.84343,1.69604,3.06365,2,0,10.1232,0,0
2.32,5.8827,1.70362,3.10365,2,0,12.0713,0,0
2.34,5.92163,1.7128,3.14365,2,0,14.1921,0,0
2.36,5.96023,1.72327,3.18365,2,0,16.4271,0,0
2.38,5.99834,1.73541,3.22365,2,0,18.7789,0,0
2.4,6.03593,1.74906,3.26365,2,0,21.2032,0,0
2.42,6.07289,1.76434,3.30365,2,0,23.6697,0,0
2.44,6.10919,1.78113,3.34365,2,0,26.1387,0,0
2.46,6.14468,1.79957,3.38365,2,0,28.5626,0,0
2.48,6.17942,1.81938,3.42365,2,0,30.9088,0,0
2.5,6.21333,1.84059,3.46365,2,0,33.1318,0,0
2.52,6.24642,1.86307,3.50365,2,0,35.1985,0,0
2.54,6.27871,1.88666,3.54365,2,0,37.0817,0,0
2.56,6.31025,1.91126,3.58365,2,0,38.7528,0,0
2.58,6.34112,1.93669,3.62365,2,0,40.2052,0,0
2.6,6.37138,1.96285,3.66365,2,0,41.4145,0,0
2.62,6.40114,1.98958,3.70365,2,0,42.3796,0,0
2.64,6.43052,2.01672,3.74365,2,0,43.1035,0,0
2.66,6.4596,2.04419,3.78365,2,0,43.5633,0,0
2.68,6.48852,2.07182,3.82365,2,0,43.776,0,0
2.7,6.51741,2.09949,3.86365,2,0,43.7273,0,0
2.72,6.54638,2.12707,3.90365,2,0,43.428,0,0
2.74,6.57554,2.15444,3.94365,2,0,42.8783,0,0
2.76,6.60505,2.18146,3.98365,2,-0.631681,42.0682,0,0
2.78,6.63483,2.20789,4.02347,1.97984,-2,41.0256,0,0
2.8,6.6647,2.23331,4.0627,1.93984,-2,39.7556,0,0
2.82,6.69449,2.25748,4.10106,1.89984,-2,38.2983,0,0
2.84,6.72432,2.28041,4.13869,1.85984,-2,36.6768,0,0
2.86,6.75418,2.30185,4.17545,1.81984,-2,34.9023,0,0
2.88,6.78397,2.32208,4.21147,1.77984,-2,33.0404,0,0
2.9,6.81384,2.34068,4.24666,1.73984,-2,31.0767,0,0
2.92,6.8436,2.35789,4.28104,1.69984,-2,29.0737,0,0
2.94,6.87321,2.37381,4.31466,1.65984,-2,27.0545,0,0
2.96,6.90271,2.38811,4.34745,1.61984,-2,25.0401,0,0
2.98,6.9319,2.40114,4.37942,1.57984,-2,23.0645,0,0
3,6.96079,2.4129,4.41062,1.53984,-2,21.1427,0,0
3.02,6.98935,2.42338,4.44104,1.49984,-2,19.2949,0,0
3.04,7.01743,2.43281,4.47066,1.45984,-2,17.529,0,0
3.06,7.04498,2.44107,4.49943,1.41984,-2,15.8667,0,0
3.08,7.07201,2.44825,4.5274,1.37984,-2,14.3146,0,0
3.1,7.09842,2.45468,4.55458,1.33984,-2,12.8561,0,0
3.12,7.12421,2.46025,4.58097,1.29984,-2,11.5056,0,0
3.14,7.14935,2.46502,4.60656,1.25984,-2,10.2683,0,0
3.16,7.17378,2.46923,4.63135,1.21984,-2,9.11962,0,0
3.18,7.19751,2.47284,4.65535,1.17984,-2,8.07055,0,0
3.2,7.22052,2.47585,4.67856,1.13984,-2,7.12455,0,0
3.22,7.2428,2.47852,4.701,1.09984,-2,6.24997,0,0
3.24,7.2643,2.48074,4.72261,1.05984,-2,5.46314,0,0
3.26,7.28494,2.48252,4.74333,1.01984,-2,4.77352,0,0
3.28,7.30482,2.48408,4.76327,0.979844,-2,4.13905,0,0
3.3,7.32398,2.48539,4.78247,0.939844,-2,3.56754,0,0
3.32,7.34247,2.48645,4.801,0.899844,-2,3.06053,0,0
3.34,7.3599,2.48729,4.81845,0.859844,-2,2.62445,0,0
3.36,7.37663,2.48801,4.83519,0.819844,-2,2.22642,0,0
3.38,7.39283,2.48865,4.8514,0.779844,-2,1.85729,0,0
3.4,7.40776,2.48904,4.86634,0.739844,-2,1.57881,0,0
3.42,7.42222,2.4894,4.88081,0.699844,-2,1.31608,0,0
3.44,7.43572,2.48969,4.89431,0.659844,-2,1.08648,0,0
3.46,7.44851,2.48992,4.90711,0.619844,-2,0.888361,0,0
3.48,7.46041,2.49007,4.919,0.579844,-2,0.730097,0,0
3.5,7.47173,2.49021,4.93033,0.539844,-2,0.588235,0,0
3.52,7.48176,2.49029,4.94036,0.499844,-2,0.483558,0,0
3.54,7.49179,2.49037,4.95038,0.459844,-2,0.378881,0,0
3.56,7.50001,2.49042,4.95861,0.419844,-2,0.306159,0,0
3.58,7.50771,2.49046,4.9663,0.379844,-2,0.242803,0,0
3.6,7.5154,2.4905,4.974,0.339844,-2,0.179447,0,0
3.62,7.52097,2.49052,4.97956,0.299844,-2,0.140809,0,0
3.64,7.52416,2.49052,4.98275,0.259844,-2,0.129755,0,0
3.66,7.52734,2.49053,4.98594,0.219844,-2,0.118701,0,0
3.68,7.53053,2.49053,4.98913,0.179844,-2,0.107647,0,0
3.7,7.53372,2.49053,4.99231,0.139844,-2,0.0965938,0,0
3.72,7.53691,2.49054,4.9955,0.0998436,-2,0.08554,0,0
3.74,7.54009,2.49054,4.99869,0.0598436,-2,0.0744863,0,0
3.76,7.54328,2.49054,5.00188,0.0198436,-2,0.0634326,0,0
